#     BM23  -  E.S.R.F.  - Thu Dec 10 17:11:39 2015
#S 39 scan 8.8767 9.62357 462 1
#T 1 (Seconds)
# file name: /data/bm23/inhouse/Phelma_9591/Cu2O.dat
# -------------------------------------------------------
# primary slit vertical aperture 0.3 mm
# monochromator:  Si (1 1 1) flat
# adopted d spacing  3.13467 Angstroems
# first crystal initial temperature -164.8 C
# harmonic rejection mirror: Si at 3.0 mrad
# experimental slit horizontal aperture 5 mm
# experimental slit vertical aperture 15 mm
# initial ring current 81.9197 mA
# electrometer ranges for I0 - 1e-07 mA, I1 - 1e-07 mA (I2 - 3e-08 mA)
# -------------------------------------------------------
# EXAFS scan with optimized energy mesh
# parameter file name: /data/bm23/inhouse/Phelma_9591/acq.par
# scan parameter file name: /data/bm23/inhouse/Phelma_9591/CuKedge.par
# Energy limits  8.8767 - 9.62357 KeV
# Detuning = 0 Loeffen, Piezzo position: init=0, end=0
# acquisition time per scan point 1 s
# target I0 counts for feedback (type 0) init=0, end=0 counts/s, tif = 1, tiw = 0.2
# none
# -------------------------------------------------------
#N 15
#L E[keV]  alpha  I0  I1  I2  point_nb  qg1  T1  T2  E_enc[keV]  ref  log_i1_i2  S[cal1]  S[cal2]  elapseT
8.87670517 0.132822 2309969 2022658 1788361 1 7229.72 0 0 8.87343 0.123113 0.123113 1 1 1.36537
8.88169289 0.126766 5944701 5236924 4638103 2 7318.23 0 0 8.87829 0.121429 0.121429 1 1 3.42848
8.88670444 0.124525 5946623 5250368 4658659 3 7296.1 0 0 8.88326 0.119571 0.119571 1 1 5.51958
8.89170361 0.122817 5947205 5259862 4677381 4 7237.35 0 0 8.88826 0.117366 0.117366 1 1 7.62158
8.89670849 0.120718 5949814 5273222 4698329 5 7174.79 0 0 8.89329 0.115435 0.115435 1 1 9.70766
8.90170002 0.118484 5953117 5287950 4720299 6 7138.93 0 0 8.89826 0.113558 0.113558 1 1 11.5558
8.90669727 0.116421 5943667 5290459 4732063 7 7074.85 0 0 8.90327 0.111544 0.111544 1 1 13.6451
8.91170025 0.114486 5958988 5314370 4764021 8 7060.35 0 0 8.90825 0.109322 0.109322 1 1 15.5301
8.9167099 0.112375 5961082 5327473 4784604 9 7004.65 0 0 8.91331 0.107474 0.107474 1 1 17.3733
8.92170525 0.110554 5963192 5339071 4805056 10 6972.61 0 0 8.91825 0.105383 0.105383 1 1 19.4694
8.92670631 0.108492 5965804 5352437 4826619 11 6952.01 0 0 8.92327 0.103406 0.103406 1 1 21.3191
8.93169498 0.106388 5942163 5342456 4826852 12 6926.07 0 0 8.92826 0.101491 0.101491 1 1 23.4616
8.9367075 0.104586 5962333 5370257 4862169 13 6915.39 0 0 8.93327 0.0993911 0.0993911 1 1 25.551
8.94170761 0.102581 5956387 5375669 4876380 14 6879.53 0 0 8.93821 0.0974799 0.0974799 1 1 27.4128
8.94669342 0.100942 5936975 5366941 4878235 15 6852.83 0 0 8.94319 0.0954746 0.0954746 1 1 29.4959
8.95113087 0.0992007 5968020 5404406 4920445 16 6842.15 0 0 8.94763 0.0938156 0.0938156 1 1 31.3361
8.95442295 0.0979955 5967916 5410829 4933077 17 6816.97 0 0 8.95092 0.0924394 0.0924394 1 1 33.1799
8.95656872 0.0973001 5968044 5414709 4940506 18 6778.82 0 0 8.95302 0.0916514 0.0916514 1 1 35.0661
8.95706654 0.0970644 5969898 5417668 4944126 19 6794.08 0 0 8.95356 0.0914653 0.0914653 1 1 36.6725
8.95756435 0.0969317 5968750 5417345 4945424 20 6753.64 0 0 8.95406 0.0911431 0.0911431 1 1 38.5071
8.95806313 0.0967314 5969414 5419033 4947685 21 6775.77 0 0 8.95456 0.0909976 0.0909976 1 1 40.0906
8.9585619 0.0964464 5969874 5420995 4950155 22 6731.52 0 0 8.95504 0.0908605 0.0908605 1 1 41.929
8.95905972 0.0963868 5969628 5421095 4951192 23 6765.85 0 0 8.95554 0.0906695 0.0906695 1 1 43.5281
8.95957756 0.0963393 5969754 5421467 4952414 24 6764.32 0 0 8.95604 0.0904913 0.0904913 1 1 45.4233
8.96007538 0.0959831 5970577 5424146 4955964 25 6762.04 0 0 8.95653 0.0902688 0.0902688 1 1 47.2221
8.96057415 0.095865 5970324 5424557 4957353 26 6740.67 0 0 8.95704 0.0900643 0.0900643 1 1 48.8146
8.96107292 0.0956211 5969295 5424945 4958820 27 6726.18 0 0 8.95754 0.0898399 0.0898399 1 1 50.6492
8.96157169 0.0955101 5968714 5425019 4959242 28 6733.04 0 0 8.95805 0.0897685 0.0897685 1 1 52.2868
8.96207047 0.0955116 5969995 5426175 4961767 29 6723.13 0 0 8.95853 0.0894725 0.0894725 1 1 54.1372
8.96256924 0.0951841 5969803 5427778 4963545 30 6716.26 0 0 8.959 0.0894096 0.0894096 1 1 55.9689
8.96306801 0.0950026 5970487 5429385 4966076 31 6704.05 0 0 8.95948 0.0891959 0.0891959 1 1 57.5567
8.96356678 0.0949133 5970266 5429669 4967841 32 6704.81 0 0 8.96 0.0888928 0.0888928 1 1 59.4037
8.96406555 0.0947879 5970046 5430150 4969680 33 6696.42 0 0 8.9605 0.0886113 0.0886113 1 1 61.056
8.96456432 0.0945364 5970252 5431703 4971115 34 6708.63 0 0 8.96102 0.0886085 0.0886085 1 1 62.9002
8.96506405 0.0945513 5970653 5431987 4972279 35 6672.77 0 0 8.9615 0.0884267 0.0884267 1 1 64.7348
8.96556282 0.0944662 5970201 5432038 4974187 36 6684.21 0 0 8.962 0.0880524 0.0880524 1 1 66.5932
8.96606159 0.0942966 5969669 5432475 4975114 37 6685.74 0 0 8.9625 0.0879465 0.0879465 1 1 68.4452
8.96656132 0.0941985 5969718 5433053 4976567 38 6672.77 0 0 8.96299 0.0877609 0.0877609 1 1 70.2892
8.96706009 0.0940704 5970036 5434038 4978808 39 6668.19 0 0 8.96347 0.087492 0.087492 1 1 72.141
8.96755981 0.0939035 5970463 5435334 4980479 40 6666.67 0 0 8.96399 0.0873949 0.0873949 1 1 73.9946
8.96805954 0.0937241 5968442 5434469 4980595 41 6680.4 0 0 8.96451 0.0872124 0.0872124 1 1 75.7825
8.96855927 0.0934812 5970001 5437209 4984392 42 6639.2 0 0 8.96501 0.0869544 0.0869544 1 1 77.4246
8.96905804 0.0933167 5969761 5437885 4985558 43 6638.44 0 0 8.96549 0.0868449 0.0868449 1 1 79.2868
8.96955872 0.0934029 5969358 5437049 4985853 44 6654.46 0 0 8.96598 0.0866319 0.0866319 1 1 81.1331
8.97007656 0.0931282 5969954 5439086 4988972 45 6643.02 0 0 8.9665 0.0863811 0.0863811 1 1 82.9677
8.97057724 0.0930288 5969699 5439394 4990247 46 6649.12 0 0 8.967 0.0861822 0.0861822 1 1 84.5554
8.97107601 0.0931771 5969810 5438689 4990915 47 6627.76 0 0 8.96752 0.0859188 0.0859188 1 1 86.3935
8.97157574 0.0931358 5969906 5439001 4991708 48 6626.99 0 0 8.96802 0.0858173 0.0858173 1 1 87.9916
8.97207642 0.093123 5969644 5438832 4992907 49 6616.31 0 0 8.96852 0.085546 0.085546 1 1 89.8367
8.97257614 0.0929371 5970024 5440189 4995168 50 6613.26 0 0 8.96902 0.0853427 0.0853427 1 1 91.4409
8.97307587 0.0929253 5970366 5440565 4996172 51 6610.21 0 0 8.96951 0.0852109 0.0852109 1 1 93.2835
8.97357559 0.093007 5970372 5440126 4996733 52 6591.13 0 0 8.96999 0.0850179 0.0850179 1 1 94.8712
8.97407627 0.0929216 5969885 5440147 4997681 53 6584.27 0 0 8.9705 0.0848321 0.0848321 1 1 96.5201
8.974576 0.092945 5969339 5439522 4997827 54 6602.58 0 0 8.97102 0.084688 0.084688 1 1 98.3569
8.97507668 0.0930189 5969756 5439500 4998670 55 6585.03 0 0 8.97154 0.0845153 0.0845153 1 1 99.9544
8.9755764 0.0929594 5968670 5438834 4999329 56 6578.93 0 0 8.97202 0.084261 0.084261 1 1 101.825
8.97607708 0.0932751 5968840 5437272 4998809 57 6568.25 0 0 8.97251 0.0840778 0.0840778 1 1 103.619
8.97657776 0.0937873 5968392 5434080 4997044 58 6572.82 0 0 8.97299 0.0838437 0.0838437 1 1 105.264
8.97705841 0.0947031 5968422 5429133 4992941 59 6572.06 0 0 8.97346 0.0837543 0.0837543 1 1 107.116
8.97755909 0.0954971 5968083 5424516 4989495 60 6562.14 0 0 8.97398 0.083594 0.083594 1 1 108.979
8.97805977 0.0958359 5967926 5422536 4989112 61 6547.65 0 0 8.9745 0.0833057 0.0833057 1 1 110.769
8.97856045 0.0959986 5967396 5421172 4988729 62 6537.73 0 0 8.97498 0.0831309 0.0831309 1 1 112.367
8.97906113 0.0962314 5966894 5419454 4988697 63 6553.75 0 0 8.97549 0.0828203 0.0828203 1 1 114.204
8.97956181 0.0969835 5967066 5415536 4985596 64 6530.86 0 0 8.97599 0.0827189 0.0827189 1 1 115.808
8.98006248 0.0982204 5966206 5408062 4980241 65 6513.31 0 0 8.97647 0.0824125 0.0824125 1 1 117.656
8.98056316 0.100018 5964765 5397044 4970138 66 6526.28 0 0 8.97696 0.0824038 0.0824038 1 1 119.247
8.9810648 0.102157 5964259 5385059 4960410 67 6531.62 0 0 8.97746 0.0821399 0.0821399 1 1 121.093
8.98156452 0.104779 5963594 5370356 4947921 68 6511.02 0 0 8.97797 0.0819267 0.0819267 1 1 122.688
8.98206615 0.108455 5963264 5350354 4930019 69 6504.16 0 0 8.97849 0.0818199 0.0818199 1 1 124.604
8.98256683 0.113798 5961901 5320629 4903593 70 6512.55 0 0 8.97899 0.0816233 0.0816233 1 1 126.397
8.98306847 0.120808 5961588 5283184 4870562 71 6501.11 0 0 8.97946 0.0813196 0.0813196 1 1 127.983
8.98356915 0.129534 5962812 5238358 4829927 72 6482.8 0 0 8.97994 0.0811767 0.0811767 1 1 129.877
8.98407078 0.138216 5962018 5192383 4787766 73 6501.11 0 0 8.98045 0.0811288 0.0811288 1 1 131.714
8.98457241 0.144793 5961229 5157664 4756922 74 6492.71 0 0 8.98097 0.0808829 0.0808829 1 1 133.3
8.98507309 0.148667 5961003 5137529 4738978 75 6482.8 0 0 8.98149 0.0807507 0.0807507 1 1 135.145
8.98557472 0.14994 5960631 5130668 4734494 76 6478.98 0 0 8.98198 0.080361 0.080361 1 1 136.785
8.98607635 0.149789 5961539 5132225 4736735 77 6462.2 0 0 8.9825 0.0801912 0.0801912 1 1 138.628
8.98655891 0.148936 5960488 5135699 4740167 78 6469.83 0 0 8.98298 0.0801436 0.0801436 1 1 140.468
8.98706055 0.148988 5960386 5135347 4740765 79 6436.26 0 0 8.98347 0.0799489 0.0799489 1 1 142.057
8.98756123 0.150076 5960272 5129664 4736652 80 6437.02 0 0 8.98396 0.0797096 0.0797096 1 1 143.899
8.98806381 0.152612 5960558 5116917 4726088 81 6450.75 0 0 8.98446 0.0794543 0.0794543 1 1 145.485
8.98856544 0.156429 5959420 5096449 4707590 82 6446.17 0 0 8.98498 0.0793679 0.0793679 1 1 147.373
8.98906708 0.160797 5959312 5074143 4687838 83 6428.63 0 0 8.9855 0.0791861 0.0791861 1 1 149.218
8.98956871 0.165248 5958600 5051006 4668136 84 6419.47 0 0 8.98601 0.0788276 0.0788276 1 1 151.053
8.9900713 0.169496 5958950 5029889 4648764 85 6429.39 0 0 8.98647 0.0787965 0.0787965 1 1 152.656
8.99057293 0.174276 5958644 5005647 4627740 86 6395.82 0 0 8.98696 0.078498 0.078498 1 1 154.503
8.99107552 0.178754 5958031 4982769 4607306 87 6392.77 0 0 8.98747 0.0783424 0.0783424 1 1 156.088
8.99157715 0.182904 5958428 4962466 4589778 88 6389.72 0 0 8.98799 0.0780711 0.0780711 1 1 157.924
8.99205971 0.185563 5958282 4949164 4578204 89 6390.48 0 0 8.98849 0.0779119 0.0779119 1 1 159.591
8.99256229 0.187579 5958280 4939195 4569320 90 6378.27 0 0 8.989 0.077838 0.077838 1 1 161.407
8.99306393 0.188454 5957455 4934195 4565632 91 6388.19 0 0 8.98948 0.0776326 0.0776326 1 1 162.992
8.99356651 0.189524 5957269 4928761 4561442 92 6389.72 0 0 8.99 0.0774488 0.0774488 1 1 164.831
8.9940691 0.190657 5956855 4922839 4556854 93 6365.3 0 0 8.99049 0.0772529 0.0772529 1 1 166.424
8.99457169 0.19184 5957294 4917381 4552741 94 6340.89 0 0 8.99098 0.0770466 0.0770466 1 1 168.318
8.99507427 0.192989 5955309 4910101 4546670 95 6353.86 0 0 8.99148 0.0768994 0.0768994 1 1 170.175
8.9955759 0.194251 5955399 4903978 4541897 96 6334.78 0 0 8.99201 0.0767019 0.0767019 1 1 171.977
8.99605942 0.196069 5954975 4894725 4534324 97 6361.49 0 0 8.99249 0.0764821 0.0764821 1 1 173.589
8.996562 0.197346 5953351 4887143 4528586 98 6357.67 0 0 8.993 0.0761981 0.0761981 1 1 175.429
8.99706554 0.197773 5952371 4884256 4526174 99 6343.18 0 0 8.99347 0.07614 0.07614 1 1 177.015
8.99756813 0.197847 5951608 4883267 4526584 100 6329.44 0 0 8.99396 0.0758469 0.0758469 1 1 178.85
8.99807072 0.197374 5951079 4885143 4528948 101 6332.49 0 0 8.99446 0.0757089 0.0757089 1 1 180.484
8.9985733 0.196353 5951091 4890141 4533957 102 6305.03 0 0 8.99498 0.0756261 0.0756261 1 1 182.071
8.99909592 0.19526 5950429 4894944 4540221 103 6320.29 0 0 8.99552 0.0752271 0.0752271 1 1 183.924
8.99961853 0.194316 5951297 4900283 4546291 104 6304.26 0 0 8.99603 0.0749812 0.0749812 1 1 185.528
9.00014114 0.193044 5950997 4906276 4551998 105 6310.37 0 0 8.99655 0.0749489 0.0749489 1 1 187.383
9.0006628 0.191642 5951094 4913236 4559657 106 6290.53 0 0 8.99707 0.0746854 0.0746854 1 1 188.97
9.00120544 0.189674 5951160 4922969 4570011 107 6283.67 0 0 8.9976 0.0743962 0.0743962 1 1 190.818
9.00176716 0.187595 5951252 4933294 4580279 108 6300.45 0 0 8.99815 0.074247 0.074247 1 1 192.436
9.00230885 0.185712 5951953 4943173 4590096 109 6299.69 0 0 8.99871 0.0741065 0.0741065 1 1 194.266
9.00287056 0.184254 5952556 4950885 4598638 110 6269.17 0 0 8.99929 0.0738062 0.0738062 1 1 195.863
9.00345135 0.182593 5953050 4959528 4607593 111 6256.2 0 0 8.99986 0.073605 0.073605 1 1 197.755
9.00401211 0.181389 5952360 4964928 4613828 112 6297.4 0 0 9.0004 0.0733409 0.0733409 1 1 199.599
9.00459385 0.180228 5953266 4971454 4620791 113 6268.41 0 0 9.00096 0.0731464 0.0731464 1 1 201.441
9.00519371 0.179088 5953291 4977145 4627604 114 6301.21 0 0 9.00157 0.0728172 0.0728172 1 1 203.037
9.00579453 0.177813 5953925 4984026 4634408 115 6240.94 0 0 9.0022 0.0727295 0.0727295 1 1 204.893
9.00639534 0.176685 5953368 4989185 4640139 116 6243.23 0 0 9.00281 0.0725282 0.0725282 1 1 206.483
9.00699615 0.176165 5953830 4992167 4644613 117 6243.99 0 0 9.0034 0.072162 0.072162 1 1 208.319
9.00761604 0.175788 5953827 4994043 4647192 118 6227.97 0 0 9.00403 0.0719826 0.0719826 1 1 209.908
9.00823689 0.17528 5954041 4996760 4650730 119 6237.89 0 0 9.00464 0.0717655 0.0717655 1 1 211.759
9.0088768 0.175345 5953986 4996390 4651507 120 6222.63 0 0 9.00527 0.0715244 0.0715244 1 1 213.35
9.00949669 0.175282 5954048 4996759 4652793 121 6227.97 0 0 9.00592 0.0713218 0.0713218 1 1 215.261
9.01015663 0.175573 5954791 4995928 4653018 122 6227.97 0 0 9.00658 0.0711071 0.0711071 1 1 217.105
9.01079655 0.175418 5954008 4996045 4654597 123 6207.37 0 0 9.00721 0.0707913 0.0707913 1 1 218.968
9.01145649 0.175216 5953183 4996363 4656432 124 6186.77 0 0 9.00784 0.0704608 0.0704608 1 1 220.757
9.01211548 0.175162 5954133 4997430 4658317 125 6232.55 0 0 9.0085 0.0702695 0.0702695 1 1 222.353
9.01279449 0.174645 5953679 4999632 4661441 126 6215.76 0 0 9.00922 0.0700397 0.0700397 1 1 224.204
9.01347351 0.174353 5954267 5001584 4664699 127 6221.87 0 0 9.0099 0.0697313 0.0697313 1 1 225.797
9.01415348 0.173856 5955357 5004990 4668843 128 6202.79 0 0 9.01056 0.0695241 0.0695241 1 1 227.686
9.01485252 0.173663 5955924 5006432 4671125 129 6186.77 0 0 9.01126 0.0693235 0.0693235 1 1 229.525
9.01555061 0.173127 5955889 5009088 4675758 130 6190.59 0 0 9.01194 0.0688626 0.0688626 1 1 231.12
9.01625061 0.172531 5956849 5012879 4680004 131 6187.53 0 0 9.01264 0.0687114 0.0687114 1 1 232.978
9.01696873 0.172127 5957070 5015091 4683393 132 6197.45 0 0 9.01338 0.0684287 0.0684287 1 1 234.571
9.0176878 0.171343 5957989 5019802 4688989 133 6191.35 0 0 9.01408 0.0681735 0.0681735 1 1 236.411
9.01840687 0.170526 5957459 5023455 4693676 134 6193.64 0 0 9.01476 0.0679019 0.0679019 1 1 238.01
9.01914501 0.169586 5957906 5028557 4700092 135 6191.35 0 0 9.01551 0.067551 0.067551 1 1 239.852
9.01988316 0.168676 5957541 5032829 4705210 136 6175.33 0 0 9.01626 0.0673118 0.0673118 1 1 241.437
9.02062225 0.167237 5957283 5039857 4713453 137 6160.07 0 0 9.017 0.0669569 0.0669569 1 1 243.287
9.02138138 0.166157 5957875 5045803 4720084 138 6153.96 0 0 9.01775 0.0667302 0.0667302 1 1 244.89
9.0221386 0.16505 5957083 5050720 4725791 139 6145.57 0 0 9.0185 0.0664958 0.0664958 1 1 246.751
9.02289772 0.164541 5957949 5054026 4730593 140 6140.23 0 0 9.01926 0.0661346 0.0661346 1 1 248.599
9.02367592 0.163308 5957383 5059783 4737040 141 6121.92 0 0 9.02006 0.0659111 0.0659111 1 1 250.442
9.02445412 0.162803 5955689 5060900 4740337 142 6146.33 0 0 9.02083 0.0654361 0.0654361 1 1 252.029
9.02525139 0.161969 5938238 5050277 4731061 143 6122.68 0 0 9.0216 0.0652936 0.0652936 1 1 253.871
9.02604961 0.161556 5913543 5031353 4714621 144 6098.27 0 0 9.02239 0.0650204 0.0650204 1 1 255.464
9.02684784 0.160861 5919420 5039857 4724579 145 6096.74 0 0 9.02323 0.0645992 0.0645992 1 1 257.312
9.02764606 0.160391 5948120 5066673 4751170 146 6069.28 0 0 9.02402 0.0642935 0.0642935 1 1 258.912
9.02846432 0.160398 5955445 5072874 4758595 147 6095.98 0 0 9.02485 0.0639551 0.0639551 1 1 260.76
9.02928257 0.160425 5955587 5072860 4759145 148 6074.62 0 0 9.02565 0.0638367 0.0638367 1 1 262.402
9.0301199 0.160625 5955301 5071602 4760161 149 6055.54 0 0 9.02649 0.0633752 0.0633752 1 1 264.247
9.03095818 0.161052 5955301 5069438 4759390 150 6055.54 0 0 9.02737 0.0631104 0.0631104 1 1 266.089
9.0317955 0.161243 5954390 5067695 4759020 151 6060.88 0 0 9.02818 0.0628443 0.0628443 1 1 267.828
9.03263378 0.161784 5954986 5065460 4759210 152 6076.14 0 0 9.02899 0.0623633 0.0623633 1 1 269.673
9.03349113 0.162026 5954711 5064001 4758835 153 6037.23 0 0 9.02986 0.062154 0.062154 1 1 271.265
9.03436852 0.16247 5952777 5060110 4757243 154 6050.97 0 0 9.03076 0.0617199 0.0617199 1 1 273.152
9.03522682 0.162981 5953322 5057988 4756517 155 6046.39 0 0 9.03162 0.0614531 0.0614531 1 1 274.991
9.03610516 0.163488 5953509 5055581 4755831 156 6041.05 0 0 9.03248 0.0611213 0.0611213 1 1 276.593
9.03698349 0.163834 5953077 5053465 4755684 157 6041.05 0 0 9.03334 0.0607336 0.0607336 1 1 278.461
9.0378809 0.164271 5953391 5051523 4755170 158 6028.08 0 0 9.03427 0.0604573 0.0604573 1 1 280.269
9.03877831 0.164671 5953227 5049367 4755121 159 6044.1 0 0 9.03513 0.0600407 0.0600407 1 1 281.874
9.03967667 0.165262 5954775 5047693 4755148 160 6012.82 0 0 9.03601 0.0597035 0.0597035 1 1 283.715
9.0405941 0.165602 5955853 5046891 4755946 161 6019.68 0 0 9.03694 0.0593768 0.0593768 1 1 285.316
9.04151249 0.165708 5956241 5046686 4757099 162 5962.46 0 0 9.03787 0.0590938 0.0590938 1 1 287.156
9.04243088 0.16591 5956699 5046051 4758331 163 6009 0 0 9.03879 0.058709 0.058709 1 1 288.758
9.04336834 0.165762 5956644 5046752 4760516 164 5966.28 0 0 9.03972 0.0583888 0.0583888 1 1 290.598
9.04430676 0.165911 5957723 5046915 4762619 165 5980.77 0 0 9.04065 0.0579794 0.0579794 1 1 292.185
9.04524517 0.165913 5957318 5046564 4763733 166 5993.74 0 0 9.04162 0.057676 0.057676 1 1 294.022
9.04620266 0.165916 5958216 5047310 4765751 167 5959.41 0 0 9.04255 0.0574003 0.0574003 1 1 295.672
9.0471611 0.165823 5957380 5047069 4767710 168 5958.65 0 0 9.04351 0.0569416 0.0569416 1 1 297.522
9.04811954 0.165654 5956582 5047247 4769374 169 5942.63 0 0 9.04449 0.0566279 0.0566279 1 1 299.379
9.04909801 0.165576 5957654 5048550 4772420 170 5915.16 0 0 9.04548 0.0562476 0.0562476 1 1 301.173
9.05007648 0.165316 5956939 5049253 4774858 171 5918.21 0 0 9.04645 0.0558761 0.0558761 1 1 302.77
9.05105495 0.164996 5956995 5050921 4778688 172 5931.94 0 0 9.04742 0.0554046 0.0554046 1 1 304.632
9.05205345 0.164533 5956930 5053202 4782694 173 5908.29 0 0 9.04846 0.0550181 0.0550181 1 1 306.222
9.05305195 0.163834 5956885 5056698 4787608 174 5910.58 0 0 9.04943 0.0546828 0.0546828 1 1 308.071
9.0540514 0.163363 5957171 5059325 4792043 175 5909.06 0 0 9.0504 0.0542762 0.0542762 1 1 309.675
9.05506992 0.162499 5956047 5062740 4797562 176 5902.95 0 0 9.05145 0.0538 0.0538 1 1 311.512
9.05608845 0.161811 5956023 5066205 4801420 177 5898.37 0 0 9.05246 0.0536803 0.0536803 1 1 313.166
9.05712795 0.161045 5954731 5068987 4806425 178 5888.46 0 0 9.0535 0.0531874 0.0531874 1 1 315.001
9.05814648 0.160493 5954359 5071467 4810618 179 5867.86 0 0 9.05451 0.0528046 0.0528046 1 1 316.597
9.05918598 0.15963 5952238 5074038 4815021 180 5852.6 0 0 9.05558 0.0523965 0.0523965 1 1 318.442
9.06024551 0.15868 5926403 5056818 4800409 181 5864.81 0 0 9.05659 0.0520363 0.0520363 1 1 320.043
9.06130505 0.158533 5873768 5012645 4760013 182 5848.78 0 0 9.05765 0.0517133 0.0517133 1 1 321.887
9.06236458 0.158025 5918201 5053130 4800785 183 5842.68 0 0 9.05874 0.0512284 0.0512284 1 1 323.489
9.06342411 0.157009 5948129 5083846 4832312 184 5816.74 0 0 9.05981 0.050743 0.050743 1 1 325.333
9.06450367 0.156252 5951781 5090817 4840770 185 5825.89 0 0 9.06088 0.0503645 0.0503645 1 1 326.928
9.06558418 0.155504 5952693 5095409 4847079 186 5803.77 0 0 9.06198 0.0499637 0.0499637 1 1 328.766
9.0666647 0.155118 5954078 5098563 4851993 187 5789.27 0 0 9.06306 0.0495692 0.0495692 1 1 330.367
9.06776524 0.15437 5953777 5102120 4857188 188 5790.8 0 0 9.06414 0.0491965 0.0491965 1 1 332.227
9.06886578 0.153957 5955782 5105947 4863114 189 5775.54 0 0 9.06527 0.048727 0.048727 1 1 333.845
