#     BM23  -  E.S.R.F.  - Thu Dec 10 19:57:26 2015
#S 47 scan 8.8767 9.62357 462 1
#T 1 (Seconds)
# file name: /data/bm23/inhouse/Phelma_9591/Cu_foil_second_group.dat
# -------------------------------------------------------
# primary slit vertical aperture 0.3 mm
# monochromator:  Si (1 1 1) flat
# adopted d spacing  3.13467 Angstroems
# first crystal initial temperature -164.8 C
# harmonic rejection mirror: Si at 3.0 mrad
# experimental slit horizontal aperture 5 mm
# experimental slit vertical aperture 15 mm
# initial ring current 68.702 mA
# electrometer ranges for I0 - 1e-07 mA, I1 - 1e-07 mA (I2 - 3e-08 mA)
# -------------------------------------------------------
# EXAFS scan with optimized energy mesh
# parameter file name: /data/bm23/inhouse/Phelma_9591/acq.par
# scan parameter file name: /data/bm23/inhouse/Phelma_9591/CuKedge.par
# Energy limits  8.8767 - 9.62357 KeV
# Detuning = 0 Loeffen, Piezzo position: init=0, end=0
# acquisition time per scan point 1 s
# target I0 counts for feedback (type 0) init=0, end=0 counts/s, tif = 1, tiw = 0.2
# none
# -------------------------------------------------------
#N 15
#L E[keV]  alpha  I0  I1  I2  point_nb  qg1  T1  T2  E_enc[keV]  ref  log_i1_i2  S[cal1]  S[cal2]  elapseT
8.87670517 0.183837 4962259 4128952 3674099 1 6672.01 0 0 8.87346 0.116716 0.116716 1 1 1.3542
8.88169289 0.182064 4983811 4154247 3704031 2 6755.93 0 0 8.87831 0.114709 0.114709 1 1 3.39373
8.88670444 0.180087 4985420 4163810 3720156 3 6716.26 0 0 8.8833 0.112665 0.112665 1 1 5.23258
8.89170361 0.177971 4986150 4173242 3736864 4 6649.12 0 0 8.88829 0.110446 0.110446 1 1 7.37917
8.89670849 0.175896 4988237 4183662 3753319 5 6607.16 0 0 8.89332 0.108546 0.108546 1 1 9.47146
8.90170002 0.174078 4991278 4193828 3770326 6 6572.06 0 0 8.89828 0.106452 0.106452 1 1 11.3249
8.90669727 0.17232 4992575 4202301 3785624 7 6529.34 0 0 8.90329 0.104421 0.104421 1 1 13.4089
8.91170025 0.170196 4995710 4213878 3804130 8 6490.42 0 0 8.90829 0.102296 0.102296 1 1 15.2944
8.9167099 0.168388 4999225 4224474 3821514 9 6449.99 0 0 8.91333 0.100248 0.100248 1 1 17.4104
8.92170525 0.166601 4999596 4232346 3836463 10 6439.31 0 0 8.91829 0.0982056 0.0982056 1 1 19.5151
8.92670631 0.164893 5002366 4241930 3853125 11 6401.16 0 0 8.9233 0.0961338 0.0961338 1 1 21.6003
8.93169498 0.163285 4982316 4231725 3851423 12 6391.24 0 0 8.92827 0.094167 0.094167 1 1 23.4388
8.9367075 0.161735 4998414 4251984 3877695 13 6368.35 0 0 8.93328 0.0921448 0.0921448 1 1 25.5514
8.94170761 0.160535 4993320 4252749 3886550 14 6342.41 0 0 8.93823 0.0900437 0.0900437 1 1 27.3928
8.94669342 0.159678 4977471 4242885 3884866 15 6315.71 0 0 8.94322 0.088155 0.088155 1 1 29.4936
8.95113087 0.159061 5003214 4267462 3914421 16 6298.16 0 0 8.94766 0.0863518 0.0863518 1 1 31.3942
8.95442295 0.158956 5004525 4269028 3921283 17 6267.64 0 0 8.95095 0.0849673 0.0849673 1 1 33.1885
8.95656872 0.159072 5003978 4268067 3923736 18 6247.81 0 0 8.95306 0.0841168 0.0841168 1 1 35.088
8.95706654 0.159173 5005120 4268610 3925711 19 6246.28 0 0 8.95359 0.0837408 0.0837408 1 1 36.9309
8.95756435 0.15923 5004739 4268043 3925957 20 6259.25 0 0 8.95409 0.0835453 0.0835453 1 1 38.7818
8.95806313 0.159373 5004629 4267340 3926536 21 6246.28 0 0 8.95458 0.0832331 0.0832331 1 1 40.5781
8.9585619 0.159428 5004726 4267187 3927005 22 6240.18 0 0 8.95508 0.0830778 0.0830778 1 1 42.2415
8.95905972 0.159627 5005260 4266791 3928034 23 6211.95 0 0 8.95558 0.082723 0.082723 1 1 44.0345
8.95957756 0.159561 5004306 4266260 3927558 24 6237.13 0 0 8.95606 0.0827197 0.0827197 1 1 45.6238
8.96007538 0.159916 5005641 4265885 3928988 25 6226.44 0 0 8.95656 0.0822678 0.0822678 1 1 47.5118
8.96057415 0.160132 5005627 4264953 3929156 26 6231.02 0 0 8.95706 0.0820065 0.0820065 1 1 49.3698
8.96107292 0.160397 5005433 4263656 3928642 27 6233.31 0 0 8.95758 0.0818332 0.0818332 1 1 51.2344
8.96157169 0.160553 5005563 4263100 3928828 28 6224.16 0 0 8.95806 0.0816554 0.0816554 1 1 53.0356
8.96207047 0.160855 5005460 4261726 3928433 29 6222.63 0 0 8.95855 0.0814336 0.0814336 1 1 54.6372
8.96256924 0.16116 5005980 4260870 3929298 30 6208.13 0 0 8.95901 0.0810126 0.0810126 1 1 56.2299
8.96306801 0.161332 5005614 4259823 3928830 31 6231.02 0 0 8.95951 0.0808859 0.0808859 1 1 57.826
8.96356678 0.161707 5005321 4257980 3927616 32 6211.18 0 0 8.96003 0.0807622 0.0807622 1 1 59.6629
8.96406555 0.162004 5006974 4258120 3929083 33 6224.16 0 0 8.96053 0.0804217 0.0804217 1 1 61.3067
8.96456432 0.162521 5005523 4254686 3926978 34 6205.84 0 0 8.96103 0.0801508 0.0801508 1 1 63.1622
8.96506405 0.162946 5005757 4253077 3926572 35 6209.66 0 0 8.96154 0.0798759 0.0798759 1 1 65.0113
8.96556282 0.16358 5005080 4249806 3924475 36 6231.02 0 0 8.96204 0.0796407 0.0796407 1 1 66.6063
8.96606159 0.164047 5005600 4248263 3924317 37 6203.56 0 0 8.96254 0.0793179 0.0793179 1 1 68.4599
8.96656132 0.164813 5006215 4245534 3922303 38 6203.56 0 0 8.963 0.0791886 0.0791886 1 1 70.0709
8.96706009 0.165469 5006061 4242616 3920495 39 6205.08 0 0 8.96351 0.0789621 0.0789621 1 1 71.6593
8.96755981 0.166272 5005219 4238499 3917560 40 6196.69 0 0 8.96402 0.0787402 0.0787402 1 1 73.5028
8.96805954 0.167005 5006417 4236407 3916283 41 6186.01 0 0 8.96453 0.0785725 0.0785725 1 1 75.0899
8.96855927 0.167948 5005498 4231635 3913902 42 6190.59 0 0 8.96504 0.0780536 0.0780536 1 1 76.9352
8.96905804 0.168962 5006092 4227850 3910862 43 6192.11 0 0 8.96551 0.0779358 0.0779358 1 1 78.5277
8.96955872 0.170121 5005804 4222709 3907065 44 6193.64 0 0 8.966 0.0776904 0.0776904 1 1 80.3715
8.97007656 0.171445 5005619 4216966 3902682 45 6173.8 0 0 8.96652 0.0774519 0.0774519 1 1 81.9657
8.97057724 0.173033 5006041 4210631 3898166 46 6168.46 0 0 8.96703 0.0771063 0.0771063 1 1 83.8013
8.97107601 0.174761 5005739 4203108 3891644 47 6173.04 0 0 8.96754 0.0769926 0.0769926 1 1 85.4578
8.97157574 0.176683 5006068 4195312 3885126 48 6178.38 0 0 8.96806 0.0768123 0.0768123 1 1 87.2412
8.97207642 0.178927 5005186 4185173 3876811 49 6183.72 0 0 8.96856 0.0765351 0.0765351 1 1 88.8913
8.97257614 0.181619 5004803 4173599 3867227 50 6179.14 0 0 8.96906 0.076241 0.076241 1 1 90.7327
8.97307587 0.184714 5005065 4160920 3856622 51 6182.19 0 0 8.96954 0.0759445 0.0759445 1 1 92.5753
8.97357559 0.188471 5004697 4145013 3842828 52 6169.22 0 0 8.97003 0.0756974 0.0756974 1 1 94.18
8.97407627 0.193115 5004658 4125775 3825824 53 6179.9 0 0 8.97053 0.07548 0.07548 1 1 96.0173
8.974576 0.198615 5004443 4102972 3805230 54 6153.96 0 0 8.97105 0.0753351 0.0753351 1 1 97.855
8.97507668 0.205578 5004181 4074286 3778898 55 6159.3 0 0 8.97155 0.0752631 0.0752631 1 1 99.4484
8.9755764 0.214973 5003917 4035977 3745158 56 6145.57 0 0 8.97206 0.0747846 0.0747846 1 1 101.292
8.97607708 0.227176 5004590 3987560 3701206 57 6157.78 0 0 8.97252 0.0745208 0.0745208 1 1 102.885
8.97657776 0.24462 5004034 3918168 3636278 58 6147.1 0 0 8.97303 0.0746636 0.0746636 1 1 104.739
8.97705841 0.269092 5003719 3823208 3550132 59 6124.97 0 0 8.97349 0.0741051 0.0741051 1 1 106.344
8.97755909 0.310526 5003809 3668097 3406499 60 6133.36 0 0 8.97401 0.0739879 0.0739879 1 1 108.206
8.97805977 0.383143 5003592 3411025 3168349 61 6130.31 0 0 8.97452 0.0738022 0.0738022 1 1 110.049
8.97856045 0.503203 5003361 3024987 2809846 62 6142.52 0 0 8.97502 0.0737771 0.0737771 1 1 111.891
8.97906113 0.667215 5003139 2567289 2385049 63 6131.84 0 0 8.97552 0.0736308 0.0736308 1 1 113.748
8.97956181 0.827081 5002889 2187884 2032582 64 6129.55 0 0 8.97601 0.0736279 0.0736279 1 1 115.34
8.98006248 0.938032 5002161 1957832 1819325 65 6120.39 0 0 8.97651 0.0733722 0.0733722 1 1 117.19
8.98056316 0.993452 5001705 1852112 1721043 66 6128.02 0 0 8.977 0.0733961 0.0733961 1 1 119.027
8.9810648 1.01169 5000232 1818096 1690026 67 6114.29 0 0 8.9775 0.0730459 0.0730459 1 1 120.617
8.98156452 1.00521 4999396 1829622 1701107 68 6099.03 0 0 8.978 0.0728302 0.0728302 1 1 122.469
8.98206615 0.985213 4999146 1866480 1736239 69 6140.99 0 0 8.97852 0.072333 0.072333 1 1 124.062
8.98256683 0.965754 4998309 1902836 1770678 70 6116.58 0 0 8.97901 0.0719829 0.0719829 1 1 125.663
8.98306847 0.959194 4998071 1915269 1782528 71 6129.55 0 0 8.97949 0.0718255 0.0718255 1 1 127.259
8.98356915 0.973334 4999320 1888850 1758675 72 6100.56 0 0 8.97998 0.0714075 0.0714075 1 1 129.103
8.98407078 1.00485 4997836 1829701 1704079 73 6108.95 0 0 8.98048 0.0711278 0.0711278 1 1 130.699
8.98457241 1.04471 4998798 1758554 1637934 74 6106.66 0 0 8.981 0.0710562 0.0710562 1 1 132.543
8.98507309 1.08197 4997998 1693953 1578127 75 6095.98 0 0 8.98151 0.0708261 0.0708261 1 1 134.136
8.98557472 1.11579 4998447 1637769 1526356 76 6086.82 0 0 8.98201 0.0704517 0.0704517 1 1 135.982
8.98607635 1.14882 4998052 1584433 1477042 77 6095.22 0 0 8.98251 0.0701852 0.0701852 1 1 137.57
8.98655891 1.1849 4997532 1528123 1424514 78 6098.27 0 0 8.983 0.0702095 0.0702095 1 1 139.416
8.98706055 1.22812 4998053 1463647 1365291 79 6087.59 0 0 8.9835 0.0695636 0.0695636 1 1 141.061
8.98756123 1.28005 4997295 1389366 1296045 80 6053.25 0 0 8.98399 0.0695302 0.0695302 1 1 142.924
8.98806381 1.33996 4996381 1308335 1220608 81 6059.36 0 0 8.98449 0.0694062 0.0694062 1 1 144.705
8.98856544 1.40593 4997001 1224961 1143075 82 6086.82 0 0 8.98502 0.069187 0.069187 1 1 146.298
8.98906708 1.48149 4996928 1135799 1059988 83 6048.68 0 0 8.98554 0.0690787 0.0690787 1 1 148.143
8.98956871 1.56205 4997136 1047923 978135 84 6074.62 0 0 8.98602 0.0689177 0.0689177 1 1 149.782
8.9900713 1.64542 4996180 963920 899801 85 6051.73 0 0 8.98651 0.0688346 0.0688346 1 1 151.635
8.99057293 1.72516 4996371 890074 831042 86 6041.05 0 0 8.987 0.0686242 0.0686242 1 1 153.473
8.99107552 1.80164 4996198 824511 770061 87 6050.2 0 0 8.9875 0.0683207 0.0683207 1 1 155.318
8.99157715 1.86966 4995962 770257 719321 88 6047.15 0 0 8.98802 0.0684165 0.0684165 1 1 157.154
8.99205971 1.9247 4995353 728921 681047 89 6065.46 0 0 8.98853 0.067934 0.067934 1 1 158.752
8.99256229 1.9686 4996045 697705 652010 90 6031.13 0 0 8.98903 0.0677364 0.0677364 1 1 160.585
8.99306393 1.99384 4995143 680196 635712 91 6041.81 0 0 8.98952 0.0676353 0.0676353 1 1 162.184
8.99356651 2.00065 4994970 675554 631723 92 6036.47 0 0 8.99002 0.067082 0.067082 1 1 164.033
8.9940691 1.99058 4994490 682325 638173 93 6039.52 0 0 8.99051 0.0668966 0.0668966 1 1 165.641
8.99457169 1.96887 4994063 697242 652377 94 6018.16 0 0 8.99101 0.0665099 0.0665099 1 1 167.488
8.99507427 1.94158 4993201 716408 670586 95 6037.23 0 0 8.99152 0.0660978 0.0660978 1 1 169.08
8.9955759 1.91125 4992609 738385 691473 96 6028.84 0 0 8.99204 0.0656412 0.0656412 1 1 170.992
8.99605942 1.88383 4991669 758769 710447 97 6026.55 0 0 8.99253 0.065803 0.065803 1 1 172.551
8.996562 1.85781 4991579 778757 729655 98 6027.31 0 0 8.99302 0.0651272 0.0651272 1 1 174.146
8.99706554 1.83591 4990663 795854 745659 99 6012.82 0 0 8.9935 0.0651473 0.0651473 1 1 175.984
8.99756813 1.82126 4990604 807586 756691 100 6002.14 0 0 8.99399 0.0650945 0.0650945 1 1 177.578
8.99807072 1.81408 4989146 813173 762158 101 6008.24 0 0 8.99449 0.06479 0.06479 1 1 179.472
8.9985733 1.81657 4989841 811259 760874 102 6001.37 0 0 8.99502 0.0641195 0.0641195 1 1 181.31
8.99909592 1.82843 4989781 801689 751846 103 6002.14 0 0 8.99554 0.0641892 0.0641892 1 1 182.928
8.99961853 1.85151 4989401 783334 734960 104 5979.25 0 0 8.99606 0.0637431 0.0637431 1 1 184.727
9.00014114 1.88389 4989219 758346 711566 105 5996.8 0 0 8.99658 0.0636715 0.0636715 1 1 186.389
9.0006628 1.92295 4988745 729229 684232 106 5994.51 0 0 8.99711 0.0636907 0.0636907 1 1 188.183
9.00120544 1.96363 4989400 700255 657376 107 5995.27 0 0 8.99763 0.0631884 0.0631884 1 1 189.777
9.00176716 2.00006 4989463 675207 633709 108 5982.3 0 0 8.99819 0.0634294 0.0634294 1 1 191.621
9.00230885 2.02167 4991306 661020 620727 109 5983.83 0 0 8.99873 0.0628927 0.0628927 1 1 193.21
9.00287056 2.02568 4990845 658311 618465 110 5977.72 0 0 8.99932 0.0624368 0.0624368 1 1 195.104
9.00345135 2.01189 4991311 667518 627175 111 5969.33 0 0 8.99988 0.0623407 0.0623407 1 1 196.943
9.00401211 1.98557 4990734 685238 643909 112 5960.94 0 0 9.00042 0.0622088 0.0622088 1 1 198.564
9.00459385 1.95211 4991306 708633 666399 113 5960.94 0 0 9.00099 0.0614491 0.0614491 1 1 200.365
9.00519371 1.91694 4990637 733903 690048 114 5961.7 0 0 9.00161 0.0616157 0.0616157 1 1 201.966
9.00579453 1.88518 4991974 757791 713046 115 5942.63 0 0 9.00223 0.0608616 0.0608616 1 1 203.822
9.00639534 1.85968 4991283 777252 731197 116 5968.57 0 0 9.00283 0.0610817 0.0610817 1 1 205.419
9.00699615 1.83788 4991883 794482 748135 117 5958.65 0 0 9.00344 0.0601068 0.0601068 1 1 207.263
9.00761604 1.81769 4992337 810759 763430 118 5928.89 0 0 9.00406 0.0601494 0.0601494 1 1 208.904
9.00823689 1.7963 4992278 828280 779970 119 5935.76 0 0 9.00468 0.0600958 0.0600958 1 1 210.747
9.0088768 1.7748 4992477 846312 797193 120 5960.17 0 0 9.0053 0.0597912 0.0597912 1 1 212.331
9.00949669 1.75674 4991419 861552 811784 121 5936.52 0 0 9.00595 0.0595011 0.0595011 1 1 214.169
9.01015663 1.74242 4992046 874092 824038 122 5935.76 0 0 9.00661 0.058969 0.058969 1 1 215.808
9.01079655 1.73583 4991882 879835 829659 123 5941.1 0 0 9.00722 0.0587196 0.0587196 1 1 217.639
9.01145649 1.73484 4992157 880762 830827 124 5950.26 0 0 9.00787 0.0583658 0.0583658 1 1 219.239
9.01211548 1.73781 4992347 878182 828625 125 5938.81 0 0 9.00853 0.0580861 0.0580861 1 1 221.104
9.01279449 1.74277 4992203 873808 824636 126 5912.87 0 0 9.00925 0.0579186 0.0579186 1 1 222.967
9.01347351 1.74968 4992474 867835 819129 127 5938.05 0 0 9.00991 0.05776 0.05776 1 1 224.77
9.01415348 1.75852 4992983 860290 812311 128 5922.03 0 0 9.0106 0.0573862 0.0573862 1 1 226.37
9.01485252 1.77006 4993602 850525 803349 129 5908.29 0 0 9.0113 0.0570645 0.0570645 1 1 228.227
9.01555061 1.78462 4993574 838222 791898 130 5922.03 0 0 9.01196 0.0568504 0.0568504 1 1 229.811
9.01625061 1.80166 4994253 824178 778910 131 5916.69 0 0 9.01268 0.056491 0.056491 1 1 231.659
9.01696873 1.82152 4995037 808096 763858 132 5922.03 0 0 9.01341 0.0562989 0.0562989 1 1 233.243
9.0176878 1.84349 4994961 790521 747338 133 5923.55 0 0 9.01411 0.0561746 0.0561746 1 1 234.883
9.01840687 1.86495 4995082 773760 731794 134 5904.48 0 0 9.01479 0.0557627 0.0557627 1 1 236.721
9.01914501 1.88747 4994732 756477 715827 135 5911.35 0 0 9.01553 0.0552336 0.0552336 1 1 238.314
9.01988316 1.90768 4995236 741412 701855 136 5912.11 0 0 9.0163 0.0548296 0.0548296 1 1 240.157
9.02062225 1.92778 4994864 726604 687930 137 5903.72 0 0 9.01703 0.0546945 0.0546945 1 1 241.756
9.02138138 1.94795 4995278 712155 674499 138 5874.72 0 0 9.01779 0.0543254 0.0543254 1 1 243.606
9.0221386 1.96779 4995551 698205 661528 139 5888.46 0 0 9.01852 0.0539604 0.0539604 1 1 245.201
9.02289772 1.98619 4995924 685528 649662 140 5877.01 0 0 9.01929 0.0537371 0.0537371 1 1 247.069
9.02367592 2.0022 4994072 674388 639275 141 5881.59 0 0 9.02008 0.0534709 0.0534709 1 1 248.662
9.02445412 2.01336 4993700 666854 632379 142 5887.69 0 0 9.02087 0.0530822 0.0530822 1 1 250.497
9.02525139 2.01745 4978569 662119 628124 143 5893.03 0 0 9.02164 0.0527077 0.0527077 1 1 252.083
9.02604961 2.01266 4957833 662530 628629 144 5872.43 0 0 9.02243 0.0525245 0.0525245 1 1 253.932
9.02684784 2.00016 4963222 671593 637543 145 5867.09 0 0 9.02325 0.0520307 0.0520307 1 1 255.533
9.02764606 1.98081 4987906 688119 653435 146 5839.63 0 0 9.02406 0.0517187 0.0517187 1 1 257.368
9.02846432 1.95762 4993246 705019 669919 147 5851.83 0 0 9.02488 0.0510679 0.0510679 1 1 258.981
9.02928257 1.93214 4993978 723318 687447 148 5849.55 0 0 9.02569 0.0508642 0.0508642 1 1 260.83
9.0301199 1.90574 4993939 742658 706024 149 5843.44 0 0 9.02653 0.0505864 0.0505864 1 1 262.426
9.03095818 1.88011 4993854 761927 724664 150 5843.44 0 0 9.02739 0.0501426 0.0501426 1 1 264.271
9.0317955 1.85721 4993294 779493 741453 151 5835.05 0 0 9.02821 0.0500319 0.0500319 1 1 265.885
9.03263378 1.83855 4992798 794095 755690 152 5841.92 0 0 9.02902 0.0495718 0.0495718 1 1 267.733
9.03349113 1.82414 4992033 805498 766774 153 5819.79 0 0 9.0299 0.0492686 0.0492686 1 1 269.349
9.03436852 1.81299 4992505 814602 776000 154 5799.19 0 0 9.03079 0.0485471 0.0485471 1 1 271.213
9.03522682 1.80621 4991978 820059 781335 155 5831.24 0 0 9.03164 0.0483723 0.0483723 1 1 273.023
9.03610516 1.80256 4991593 822998 784477 156 5819.03 0 0 9.0325 0.0479365 0.0479365 1 1 274.612
9.03698349 1.8023 4991143 823136 784890 157 5811.4 0 0 9.03337 0.0475778 0.0475778 1 1 276.468
9.0378809 1.80519 4991778 820864 782881 158 5819.79 0 0 9.03429 0.0473767 0.0473767 1 1 278.067
9.03877831 1.81097 4991570 816100 778721 159 5812.16 0 0 9.03517 0.046884 0.046884 1 1 279.952
9.03967667 1.81775 4991833 810629 773689 160 5783.17 0 0 9.03603 0.0466405 0.0466405 1 1 281.74
9.0405941 1.82479 4992740 805084 768780 161 5799.19 0 0 9.03698 0.0461417 0.0461417 1 1 283.377
9.04151249 1.82983 4993638 801184 765477 162 5790.8 0 0 9.03791 0.0455914 0.0455914 1 1 285.237
9.04243088 1.83178 4994770 799804 764218 163 5781.64 0 0 9.03882 0.0455136 0.0455136 1 1 287.022
9.04336834 1.83028 4995460 801118 765898 164 5775.54 0 0 9.03974 0.0449592 0.0449592 1 1 288.668
9.04430676 1.82719 4995457 803591 768529 165 5757.99 0 0 9.04069 0.0446121 0.0446121 1 1 290.51
9.04524517 1.82458 4995277 805666 770865 166 5757.99 0 0 9.04164 0.044156 0.044156 1 1 292.096
9.04620266 1.82512 4994708 805136 770377 167 5774.01 0 0 9.04257 0.0441312 0.0441312 1 1 293.941
9.0471611 1.82946 4995997 801858 767826 168 5749.6 0 0 9.04352 0.0433684 0.0433684 1 1 295.536
9.04811954 1.83712 4995399 795644 762134 169 5751.13 0 0 9.04453 0.0430294 0.0430294 1 1 297.373
9.04909801 1.84622 4995362 788428 755465 170 5723.66 0 0 9.0455 0.0427076 0.0427076 1 1 298.968
9.05007648 1.85385 4995650 782482 749964 171 5725.95 0 0 9.04648 0.0424457 0.0424457 1 1 300.816
9.05105495 1.85877 4995872 778674 746551 172 5720.61 0 0 9.04745 0.0421285 0.0421285 1 1 302.406
9.05205345 1.86011 4995635 777595 745882 173 5721.37 0 0 9.04847 0.0416384 0.0416384 1 1 304.294
9.05305195 1.85995 4995255 777666 746350 174 5685.51 0 0 9.04944 0.0411024 0.0411024 1 1 306.142
9.0540514 1.86047 4995052 777226 746365 175 5674.07 0 0 9.05043 0.0405164 0.0405164 1 1 307.977
9.05506992 1.86301 4994883 775232 744621 176 5703.06 0 0 9.05147 0.0402869 0.0402869 1 1 309.57
9.05608845 1.86937 4993083 770037 739821 177 5686.27 0 0 9.05249 0.0400303 0.0400303 1 1 311.419
9.05712795 1.87904 4993116 762631 733203 178 5676.36 0 0 9.05354 0.0393517 0.0393517 1 1 313.007
9.05814648 1.8902 4992187 754029 725053 179 5670.25 0 0 9.05454 0.039186 0.039186 1 1 314.843
9.05918598 1.90146 4989999 745259 716882 180 5645.08 0 0 9.0556 0.0388205 0.0388205 1 1 316.488
9.06024551 1.91155 4967958 734519 706989 181 5654.23 0 0 9.05663 0.0382007 0.0382007 1 1 318.335
9.06130505 1.91981 4924972 722172 695351 182 5659.57 0 0 9.05768 0.0378466 0.0378466 1 1 320.118
9.06236458 1.92708 4962209 722364 696118 183 5662.62 0 0 9.05878 0.03701 0.03701 1 1 321.754
9.06342411 1.93321 4987855 721656 695578 184 5638.97 0 0 9.05984 0.0368054 0.0368054 1 1 323.34
9.06450367 1.93953 4990953 717556 691638 185 5629.82 0 0 9.0609 0.0367883 0.0367883 1 1 325.212
9.06558418 1.94758 4991795 711925 686596 186 5613.03 0 0 9.062 0.0362265 0.0362265 1 1 326.795
9.0666647 1.95736 4991964 705021 680413 187 5609.22 0 0 9.06309 0.0355276 0.0355276 1 1 328.631
9.06776524 1.96844 4992924 697387 673377 188 5604.64 0 0 9.06417 0.0350351 0.0350351 1 1 330.274
9.06886578 1.98034 4992879 689128 665681 189 5602.35 0 0 9.06529 0.0346164 0.0346164 1 1 331.875
9.06998539 1.99002 4993970 682642 659591 190 5593.19 0 0 9.06642 0.0343506 0.0343506 1 1 333.72
9.07108688 1.9968 4994010 678033 655434 191 5580.22 0 0 9.06753 0.0338983 0.0338983 1 1 335.563
9.07220745 1.9982 4995014 677220 654938 192 5566.49 0 0 9.06863 0.0334556 0.0334556 1 1 337.151
9.073349 1.99352 4993528 680196 658156 193 5564.97 0 0 9.0698 0.032939 0.032939 1 1 338.996
